time,goal_position,position,goal_velocity,velocity
0.0,0.0,0.0,0.0,0.0
0.037,0.0,3e-06,0.0,0.000241
0.075,0.0,1.4e-05,0.0,0.000456
0.118,0.0,3.5e-05,0.0,0.000688
0.158,0.0,6.5e-05,0.0,0.000886
0.205,0.0,0.000109,0.0,0.001093
0.206,0.0,0.00011,0.0,0.001097
0.246,0.0,0.000155,0.0,0.001254
0.263,0.0,0.000175,0.0,0.001296
0.306,0.0,0.000231,0.0,0.001402
0.354,2.3e-05,0.000298,0.00136,0.001505
0.401,9.2e-05,0.000367,0.00272,0.001579
0.403,0.000208,0.00037,0.00408,0.001582
0.449,0.00037,0.000445,0.00544,0.002092
0.471,0.000578,0.000502,0.0068,0.002903
0.509,0.000832,0.000631,0.00816,0.004201
0.552,0.001133,0.000843,0.00952,0.005778
0.595,0.00148,0.001126,0.01088,0.007475
0.643,0.001873,0.001528,0.01224,0.009366
0.644,0.002312,0.001538,0.0136,0.009407
0.685,0.002798,0.001956,0.01496,0.011053
0.705,0.003329,0.002184,0.01632,0.011852
0.753,0.003907,0.002798,0.01768,0.013914
0.796,0.004532,0.003439,0.01904,0.015975
0.839,0.005202,0.004168,0.0204,0.017998
0.888,0.005919,0.005095,0.02176,0.019906
0.889,0.006682,0.005115,0.02312,0.019944
0.93,0.007491,0.005964,0.02448,0.021528
0.944,0.008346,0.006268,0.02584,0.022111
0.985,0.009248,0.00721,0.0272,0.023909
1.025,0.010196,0.0082,0.02856,0.025651
1.074,0.01119,0.009506,0.02992,0.027707
1.115,0.01223,0.010675,0.03128,0.029398
1.117,0.013317,0.010733,0.03264,0.02948
1.163,0.01445,0.012127,0.034,0.031098
1.181,0.015629,0.012691,0.03536,0.031655
1.225,0.016854,0.014112,0.03672,0.033008
1.268,0.018126,0.015563,0.03808,0.034637
1.31,0.019444,0.017051,0.03944,0.036321
1.35,0.020808,0.018571,0.0408,0.037844
1.39,0.022261,0.02007,0.0422,0.03909
1.391,0.023675,0.020148,0.04352,0.039153
1.429,0.025178,0.021657,0.04488,0.040355
1.453,0.026727,0.022637,0.04624,0.041518
1.494,0.028322,0.024298,0.0476,0.043724
1.538,0.029964,0.026367,0.04896,0.046253
1.581,0.031651,0.028347,0.05032,0.048093
1.629,0.033385,0.030753,0.05168,0.050217
1.63,0.035166,0.030753,0.05304,0.050217
1.672,0.036992,0.032894,0.0544,0.051777
1.691,0.038865,0.033884,0.05576,0.052459
1.732,0.040784,0.036063,0.05712,0.05392
1.776,0.042749,0.038517,0.05848,0.055258
1.82,0.04476,0.040918,0.05984,0.056504
1.859,0.046818,0.043142,0.0612,0.057638
1.904,0.048922,0.045763,0.06256,0.058945
1.906,0.051072,0.045881,0.06392,0.059003
1.947,0.053268,0.048323,0.06528,0.060321
1.964,0.055578,0.049354,0.06668,0.061024
2.006,0.058004,0.051952,0.06812,0.062747
2.052,0.060274,0.05488,0.06944,0.064752
2.096,0.062658,0.057776,0.0708,0.066927
2.138,0.065088,0.060628,0.07216,0.068975
2.139,0.067565,0.060697,0.07352,0.069022
2.179,0.070088,0.063494,0.07488,0.070913
2.205,0.072733,0.065353,0.07628,0.072129
2.244,0.075272,0.068199,0.0776,0.073792
2.281,0.078012,0.070947,0.079,0.074827
2.32,0.080722,0.073885,0.08036,0.075906
2.363,0.083395,0.077178,0.08168,0.077561
2.404,0.086196,0.080316,0.08304,0.079402
2.446,0.089042,0.08377,0.0844,0.081345
2.448,0.091935,0.083933,0.08576,0.081433
2.489,0.094874,0.087224,0.08712,0.083187
2.51,0.097859,0.089064,0.08848,0.084142
2.547,0.10089,0.092291,0.08984,0.085738
2.591,0.103968,0.096099,0.0912,0.087466
2.638,0.107092,0.100162,0.09256,0.089251
2.685,0.110262,0.104402,0.09392,0.09125
2.687,0.113478,0.104584,0.09528,0.091335
2.727,0.116741,0.108177,0.09664,0.092968
2.749,0.12005,0.110326,0.098,0.093979
2.794,0.123405,0.114503,0.09936,0.095977
2.838,0.126907,0.118768,0.10076,0.097947
2.881,0.130356,0.123122,0.10212,0.100026
2.928,0.133748,0.127872,0.10344,0.102209
2.929,0.137288,0.127975,0.1048,0.102255
2.969,0.140874,0.131995,0.10616,0.103989
2.987,0.144614,0.133978,0.10756,0.104819
3.027,0.148186,0.138204,0.10888,0.106547
3.075,0.152021,0.143367,0.11028,0.108684
3.116,0.155682,0.147859,0.1116,0.110497
3.16,0.1595,0.152762,0.11296,0.112483
3.166,0.163363,0.153438,0.11432,0.11276
3.204,0.167273,0.157754,0.11568,0.114495
3.222,0.17123,0.159707,0.11704,0.115262
3.263,0.175232,0.164585,0.1184,0.117081
3.306,0.179281,0.169656,0.11976,0.118879
3.354,0.183376,0.175408,0.12112,0.120865
3.397,0.187517,0.180642,0.12248,0.122631
3.397,0.191704,0.180642,0.12384,0.122631
3.435,0.195813,0.185329,0.12516,0.124166
3.463,0.200218,0.188946,0.12656,0.125368
3.502,0.204544,0.193739,0.12792,0.12693
3.545,0.208916,0.199232,0.12928,0.128684
3.589,0.213335,0.204934,0.13064,0.130553
3.635,0.218196,0.210982,0.13212,0.132468
3.636,0.222311,0.211114,0.13336,0.132509
3.679,0.226868,0.216847,0.13472,0.134213
3.701,0.231472,0.219808,0.13608,0.135071
3.741,0.236122,0.22524,0.13744,0.136622
3.781,0.240818,0.230736,0.1388,0.138255
3.818,0.24556,0.235878,0.14016,0.139738
3.858,0.250349,0.241498,0.14152,0.141363
3.9,0.255184,0.247327,0.14288,0.143048
3.942,0.260065,0.253658,0.14424,0.144843
3.944,0.264992,0.253803,0.1456,0.144887
3.986,0.269966,0.259924,0.14696,0.146687
4.006,0.274985,0.262866,0.14832,0.147531
4.051,0.280051,0.269545,0.14968,0.149355
4.094,0.285164,0.276,0.15104,0.150976
4.135,0.290474,0.28222,0.15244,0.152489
4.177,0.295527,0.288505,0.15376,0.154213
4.178,0.300778,0.288814,0.15512,0.154297
4.22,0.306075,0.295329,0.15648,0.15603
4.243,0.311418,0.298928,0.15784,0.156966
4.286,0.316808,0.305713,0.1592,0.158694
4.329,0.322244,0.312732,0.16056,0.160423
4.371,0.327726,0.319341,0.16192,0.162087
4.411,0.333254,0.325855,0.16328,0.16369
4.453,0.338829,0.332763,0.16464,0.165355
4.456,0.34445,0.333259,0.166,0.165474
4.5,0.350117,0.340577,0.16736,0.167207
4.516,0.35583,0.343256,0.16872,0.167827
4.558,0.36159,0.350338,0.17008,0.169489
4.599,0.367739,0.35749,0.17152,0.171168
4.64,0.373248,0.364366,0.1728,0.172767
4.682,0.379146,0.371666,0.17416,0.174875
4.724,0.385091,0.379052,0.17552,0.176933
4.725,0.391082,0.379229,0.17688,0.176982
4.769,0.397119,0.387059,0.17824,0.178951
4.789,0.403202,0.390466,0.1796,0.179764
4.828,0.409332,0.397689,0.18096,0.181447
4.868,0.415325,0.404979,0.18228,0.183173
4.911,0.421729,0.412709,0.18368,0.184962
4.955,0.427998,0.421072,0.18504,0.18678
4.999,0.434312,0.429325,0.1864,0.188441
5.0,0.440673,0.429514,0.18776,0.188479
5.043,0.44708,0.437651,0.18912,0.190104
5.058,0.453533,0.440506,0.19048,0.190739
5.103,0.460032,0.44913,0.19184,0.192609
5.146,0.466578,0.457448,0.1932,0.19434
5.19,0.47317,0.466035,0.19456,0.196036
5.237,0.479808,0.475288,0.19592,0.197801
5.237,0.486492,0.475288,0.19728,0.197801
5.279,0.493422,0.483627,0.19868,0.199398
5.299,0.5,0.487622,0.2,0.200144
5.339,0.5068,0.495656,0.2,0.201629
5.38,0.5138,0.503956,0.2,0.203366
5.42,0.5204,0.512123,0.2,0.205018
5.459,0.5272,0.519934,0.2,0.205963
5.503,0.534,0.5288,0.2,0.206477
5.504,0.5408,0.5288,0.2,0.206477
5.545,0.5478,0.537893,0.2,0.206903
5.572,0.5544,0.543479,0.2,0.206957
5.61,0.5612,0.551342,0.2,0.207031
5.654,0.568,0.56045,0.2,0.207044
5.698,0.5748,0.569555,0.2,0.206965
5.745,0.5816,0.579278,0.2,0.206847
5.747,0.5884,0.579691,0.2,0.206836
5.782,0.5952,0.586718,0.2,0.206646
5.808,0.602,0.592294,0.2,0.206498
5.848,0.6088,0.600547,0.2,0.206335
5.892,0.6156,0.609623,0.2,0.206336
5.937,0.6224,0.618906,0.2,0.206327
5.968,0.6292,0.625297,0.2,0.20614
6.007,0.6362,0.633329,0.2,0.205907
6.051,0.643,0.642381,0.2,0.205716
6.053,0.6496,0.642793,0.2,0.205713
6.094,0.6564,0.651429,0.2,0.205656
6.113,0.6632,0.655129,0.2,0.205631
6.155,0.67,0.663761,0.2,0.20551
6.198,0.6768,0.672796,0.2,0.205307
6.24,0.6836,0.681208,0.2,0.205104
6.283,0.6904,0.690016,0.2,0.204746
6.326,0.6972,0.69881,0.2,0.204395
6.328,0.703992,0.699219,0.1992,0.204378
6.37,0.710742,0.707588,0.19784,0.204023
6.385,0.717445,0.710851,0.19648,0.203884
6.428,0.724102,0.719607,0.19512,0.203514
6.469,0.730713,0.727926,0.19376,0.202254
6.507,0.73747,0.735582,0.19236,0.200877
6.549,0.743987,0.743984,0.191,0.199327
6.588,0.750269,0.751724,0.18968,0.197775
6.63,0.756883,0.759993,0.18828,0.196143
6.631,0.763074,0.760189,0.18696,0.196105
6.677,0.769408,0.769157,0.1856,0.193947
6.692,0.775695,0.77206,0.18424,0.193239
6.73,0.781936,0.779366,0.18288,0.191474
6.77,0.788131,0.786986,0.18152,0.189674
6.811,0.79464,0.794722,0.18008,0.187876
6.852,0.800561,0.802385,0.17876,0.186073
6.894,0.806615,0.810157,0.1774,0.184195
6.937,0.812624,0.818033,0.17604,0.182315
6.937,0.818586,0.818033,0.17468,0.182315
6.978,0.824502,0.825647,0.17332,0.18042
6.999,0.830372,0.829245,0.17196,0.179533
7.039,0.836366,0.836388,0.17056,0.177785
7.082,0.841973,0.843987,0.16924,0.175865
7.124,0.847704,0.851332,0.16788,0.174033
7.17,0.853389,0.859284,0.16652,0.171841
7.17,0.859027,0.859284,0.16516,0.171841
7.213,0.86462,0.866625,0.1638,0.169755
7.237,0.870166,0.870683,0.16244,0.168612
7.281,0.875665,0.87789,0.16108,0.166762
7.324,0.881119,0.885183,0.15972,0.164917
7.37,0.886526,0.89272,0.15836,0.162949
7.411,0.891887,0.899362,0.157,0.16121
7.413,0.897202,0.899684,0.15564,0.161126
7.455,0.902471,0.906411,0.15428,0.159314
7.475,0.907693,0.909428,0.15292,0.158469
7.516,0.91287,0.916041,0.15156,0.15663
7.557,0.918,0.922424,0.1502,0.154884
7.601,0.923083,0.929195,0.14884,0.153063
7.648,0.928121,0.93634,0.14748,0.151181
7.649,0.933112,0.936491,0.14612,0.151142
7.693,0.938057,0.943101,0.14476,0.149469
7.712,0.942955,0.945933,0.1434,0.148758
7.756,0.947808,0.952438,0.14204,0.147029
7.8,0.952614,0.958863,0.14068,0.145219
7.841,0.957514,0.96478,0.13928,0.143558
7.875,0.962226,0.969633,0.13792,0.142084
7.915,0.966756,0.975139,0.1366,0.140424
7.916,0.971377,0.975279,0.13524,0.140382
7.964,0.975952,0.982105,0.13388,0.13843
7.984,0.980481,0.984864,0.13252,0.137674
8.03,0.984963,0.991154,0.13116,0.135963
8.065,0.989529,0.995886,0.12976,0.134572
8.094,0.99379,0.99977,0.12844,0.133414
8.135,0.998006,1.005203,0.12712,0.131805
8.181,1.002431,1.011213,0.12572,0.129674
8.229,1.006682,1.017381,0.12436,0.127491
8.231,1.010888,1.017636,0.123,0.127401
8.271,1.015168,1.02282,0.1216,0.125665
8.294,1.019279,1.025573,0.12024,0.124753
8.325,1.023225,1.029418,0.11892,0.123484
8.369,1.027246,1.034805,0.11756,0.121542
8.416,1.031219,1.040584,0.1162,0.119404
8.463,1.035147,1.046026,0.11484,0.117373
8.464,1.039029,1.046143,0.11348,0.117329
8.51,1.042864,1.05149,0.11212,0.115323
8.528,1.046653,1.053558,0.11076,0.114548
8.568,1.050396,1.058103,0.1094,0.112898
8.612,1.054092,1.063028,0.10804,0.111124
8.656,1.057742,1.067874,0.10668,0.109227
8.699,1.061346,1.072631,0.10532,0.107162
8.7,1.064904,1.072631,0.10396,0.107162
8.741,1.068518,1.076982,0.10256,0.105274
8.77,1.071982,1.080014,0.1012,0.10399
8.805,1.0754,1.083521,0.09984,0.102503
8.846,1.078673,1.087785,0.09852,0.100677
8.893,1.081999,1.092463,0.09716,0.098586
8.93,1.08528,1.096078,0.0958,0.096964
8.969,1.088608,1.099824,0.0944,0.095316
9.001,1.091794,1.102756,0.09304,0.094028
9.043,1.094843,1.106758,0.09172,0.092235
9.044,1.097938,1.10685,0.09036,0.09219
9.087,1.100987,1.110769,0.089,0.090278
9.105,1.10399,1.112386,0.08764,0.089486
9.152,1.106947,1.116539,0.08628,0.08743
9.195,1.109857,1.120255,0.08492,0.085564
9.236,1.112722,1.123807,0.08356,0.083765
9.275,1.11554,1.126956,0.0822,0.082119
9.319,1.118392,1.130524,0.0808,0.080238
9.321,1.121037,1.130684,0.07948,0.080153
9.362,1.123716,1.133932,0.07812,0.078417
9.379,1.126349,1.135257,0.07676,0.077701
9.418,1.128935,1.138177,0.0754,0.076115
9.461,1.131476,1.141481,0.07404,0.074253
9.504,1.13397,1.144631,0.07268,0.072422
9.542,1.136418,1.14735,0.07132,0.070825
9.588,1.13882,1.150629,0.06996,0.068876
9.59,1.141175,1.150698,0.0686,0.068835
9.629,1.143485,1.153348,0.06724,0.06724
9.651,1.145748,1.154816,0.06588,0.066368
9.69,1.147965,1.157371,0.06452,0.064852
9.737,1.150135,1.160373,0.06316,0.063046
9.779,1.152259,1.162981,0.0618,0.061328
9.82,1.154338,1.165339,0.06044,0.059752
9.864,1.156369,1.168099,0.05908,0.057857
9.865,1.158355,1.168099,0.05772,0.057857
9.905,1.160294,1.170378,0.05636,0.056253
9.924,1.162187,1.171383,0.055,0.055537
9.963,1.164088,1.173569,0.0536,0.053896
10.006,1.165835,1.175844,0.05228,0.052115
10.047,1.167589,1.177943,0.05092,0.050463
10.09,1.169298,1.180075,0.04956,0.048826
10.132,1.170959,1.182089,0.0482,0.047245
10.134,1.172575,1.182183,0.04684,0.047171
10.175,1.174145,1.18408,0.04548,0.045535
10.195,1.175668,1.184981,0.04412,0.044741
10.236,1.177145,1.18665,0.04276,0.043243
10.28,1.178575,1.188636,0.0414,0.041426
10.32,1.17996,1.190259,0.04004,0.039898
