time,goal_position,position,goal_velocity,velocity
0.0,0.0,0.0,0.0,0.0
0.04,0.0,-5.9e-05,0.0,9.3e-05
0.083,0.0,-0.000116,0.0,0.000216
0.128,0.0,-0.000169,0.0,0.000355
0.13,0.0,-0.000171,0.0,0.000362
0.174,0.0,-0.000217,0.0,0.000515
0.191,0.0,-0.000232,0.0,0.000577
0.231,0.0,-0.000266,0.0,0.000738
0.277,0.0,-0.000295,0.0,0.00093
0.321,0.0,-0.000315,0.0,0.00112
0.362,0.0,-0.000326,0.0,0.001307
0.363,2.3e-05,-0.000326,0.00136,0.001312
0.405,9.2e-05,-0.000329,0.00272,0.001501
0.429,0.000208,-0.000327,0.00408,0.001616
0.467,0.00037,-0.000313,0.00544,0.002451
0.511,0.000578,-0.000222,0.0068,0.004579
0.553,0.000832,-4.8e-05,0.00816,0.006603
0.596,0.001133,0.000224,0.00952,0.008937
0.637,0.00148,0.000576,0.01088,0.011147
0.639,0.001873,0.000596,0.01224,0.011255
0.685,0.002312,0.001104,0.0136,0.013781
0.701,0.002798,0.001295,0.01496,0.014609
0.742,0.003329,0.001912,0.01632,0.01697
0.786,0.003907,0.002629,0.01768,0.019243
0.828,0.004532,0.003442,0.01904,0.021477
0.869,0.005202,0.004284,0.0204,0.023537
0.916,0.005919,0.005379,0.02176,0.025935
0.917,0.006682,0.005403,0.02312,0.025985
0.959,0.007491,0.006478,0.02448,0.028063
0.974,0.008346,0.006882,0.02584,0.028709
1.013,0.009248,0.007977,0.0272,0.030377
1.055,0.010196,0.009353,0.02856,0.032387
1.102,0.01119,0.010763,0.02992,0.03462
1.148,0.01223,0.012307,0.03128,0.036878
1.149,0.013317,0.012378,0.03264,0.036977
1.189,0.01445,0.013798,0.034,0.038748
1.212,0.015629,0.014667,0.03536,0.039776
1.251,0.016854,0.016196,0.03672,0.041504
1.298,0.018126,0.018126,0.03808,0.043546
1.341,0.019444,0.019932,0.03944,0.045346
1.383,0.020808,0.02186,0.0408,0.047264
1.384,0.022218,0.021906,0.04216,0.047309
1.429,0.023675,0.024062,0.04352,0.049372
1.451,0.025178,0.025078,0.04488,0.050303
1.49,0.026727,0.027022,0.04624,0.052266
1.533,0.028322,0.029253,0.0476,0.054401
1.575,0.029964,0.031518,0.04896,0.056271
1.617,0.031651,0.033855,0.05032,0.057949
1.663,0.033385,0.036496,0.05168,0.059804
1.665,0.035166,0.036613,0.05304,0.059891
1.709,0.036992,0.039226,0.0544,0.061794
1.721,0.038865,0.039953,0.05576,0.062307
1.765,0.040784,0.042671,0.05712,0.06413
1.807,0.042749,0.045338,0.05848,0.065752
1.849,0.04476,0.048072,0.05984,0.067346
1.889,0.046818,0.050732,0.0612,0.068574
1.937,0.048922,0.054056,0.06256,0.070023
1.938,0.051072,0.054056,0.06392,0.070023
1.981,0.053268,0.057033,0.06528,0.071418
1.995,0.055578,0.058016,0.06668,0.071892
2.034,0.0578,0.060788,0.068,0.073197
2.076,0.060135,0.06383,0.06936,0.074556
2.124,0.062516,0.067375,0.07072,0.076058
2.167,0.064944,0.070611,0.07208,0.077434
2.168,0.067418,0.070687,0.07344,0.077468
2.209,0.069938,0.073832,0.0748,0.078856
2.232,0.072504,0.075699,0.07616,0.079656
2.27,0.075117,0.078616,0.07752,0.080964
2.312,0.077776,0.081988,0.07888,0.082531
2.355,0.080481,0.085508,0.08024,0.084101
2.398,0.083232,0.089094,0.0816,0.085608
2.444,0.08603,0.093001,0.08296,0.087185
2.445,0.088873,0.093087,0.08432,0.087218
2.491,0.091763,0.097066,0.08568,0.0887
2.503,0.0947,0.098115,0.08704,0.089078
2.544,0.097682,0.101823,0.0884,0.090384
2.588,0.100711,0.10568,0.08976,0.091985
2.629,0.103786,0.109423,0.09112,0.093535
2.671,0.106907,0.113417,0.09248,0.095169
2.718,0.110074,0.117769,0.09384,0.096938
2.719,0.113288,0.117865,0.0952,0.096976
2.76,0.116548,0.121813,0.09656,0.098545
2.776,0.119854,0.123371,0.09792,0.099186
2.823,0.123206,0.128008,0.09928,0.101038
2.869,0.126605,0.13263,0.10064,0.102837
2.912,0.13005,0.137026,0.102,0.104531
2.953,0.133541,0.141284,0.10336,0.106113
2.955,0.137078,0.141494,0.10472,0.106194
2.997,0.140662,0.145928,0.10608,0.107882
3.014,0.144292,0.147636,0.10744,0.108515
3.055,0.147968,0.152167,0.1088,0.110165
3.098,0.15169,0.156881,0.11016,0.111993
3.145,0.155459,0.162122,0.11152,0.113942
3.192,0.159274,0.167458,0.11288,0.116063
3.193,0.163135,0.167573,0.11424,0.116108
3.234,0.167042,0.172311,0.1156,0.117941
3.252,0.170996,0.174415,0.11696,0.118732
3.292,0.174995,0.179142,0.11832,0.120498
3.339,0.179041,0.184785,0.11968,0.122522
3.385,0.183255,0.190399,0.12108,0.124488
3.428,0.187272,0.195603,0.1224,0.126252
3.429,0.191457,0.195853,0.12376,0.126335
3.471,0.195688,0.201135,0.12512,0.128149
3.49,0.199965,0.203678,0.12648,0.129046
3.534,0.204288,0.209205,0.12784,0.130941
3.579,0.208658,0.215076,0.1292,0.132898
3.621,0.213074,0.220635,0.13056,0.134696
3.663,0.217536,0.226268,0.13192,0.136522
3.664,0.222044,0.226403,0.13328,0.136571
3.705,0.226599,0.231983,0.13464,0.138532
3.728,0.2312,0.235148,0.136,0.139611
3.772,0.235847,0.241412,0.13736,0.141672
3.815,0.24054,0.247341,0.13872,0.143538
3.858,0.24528,0.253347,0.14008,0.145394
3.9,0.250066,0.259581,0.14144,0.147481
3.902,0.254898,0.259873,0.1428,0.147577
3.942,0.259776,0.265756,0.14416,0.149464
3.966,0.264701,0.269321,0.14552,0.150531
4.009,0.269819,0.275922,0.14692,0.15239
4.052,0.274689,0.282297,0.14824,0.154114
4.095,0.279752,0.288899,0.1496,0.155832
4.139,0.284862,0.295729,0.15096,0.157538
4.14,0.290017,0.295885,0.15232,0.157577
4.181,0.295219,0.30232,0.15368,0.159321
4.203,0.300468,0.305804,0.15504,0.160287
4.248,0.305918,0.312995,0.15644,0.162216
4.293,0.311103,0.320272,0.15776,0.164093
4.339,0.31649,0.327796,0.15912,0.165952
4.382,0.321923,0.334908,0.16048,0.167787
4.383,0.327402,0.334908,0.16184,0.167787
4.425,0.332928,0.3421,0.1632,0.16963
4.441,0.3385,0.344796,0.16456,0.170301
4.483,0.344118,0.351922,0.16592,0.171883
4.527,0.349782,0.359455,0.16728,0.173429
4.573,0.355493,0.367401,0.16864,0.174968
4.614,0.36125,0.374367,0.17,0.176239
4.616,0.367053,0.374891,0.17136,0.176333
4.658,0.372902,0.382263,0.17272,0.177646
4.68,0.378798,0.386148,0.17408,0.17839
4.722,0.38474,0.393608,0.17544,0.179775
4.771,0.390728,0.402205,0.1768,0.181436
4.817,0.396762,0.410706,0.17816,0.183215
4.857,0.402843,0.418189,0.17952,0.184668
4.861,0.40897,0.418555,0.18088,0.184727
4.905,0.415143,0.426832,0.18224,0.186031
4.916,0.421362,0.428864,0.1836,0.186343
4.956,0.427628,0.436281,0.18496,0.187535
4.998,0.433939,0.444138,0.18632,0.189516
5.042,0.440297,0.452267,0.18768,0.191474
5.085,0.446702,0.460666,0.18904,0.19311
5.126,0.453152,0.468552,0.1904,0.1945
5.128,0.459649,0.468938,0.19176,0.194567
5.171,0.466192,0.477274,0.19312,0.196176
5.19,0.472781,0.481177,0.19448,0.197023
5.231,0.479416,0.489033,0.19584,0.198676
5.273,0.486098,0.497352,0.1972,0.200404
5.316,0.492826,0.505945,0.19856,0.202162
5.357,0.4996,0.51441,0.19992,0.203832
5.4,0.5064,0.522945,0.2,0.205525
5.401,0.5132,0.523149,0.2,0.205564
5.443,0.52,0.531756,0.2,0.207195
5.462,0.5268,0.535669,0.2,0.207442
5.501,0.5336,0.5439,0.2,0.207073
5.548,0.5404,0.553348,0.2,0.206665
5.591,0.5472,0.562166,0.2,0.206445
5.636,0.554,0.571385,0.2,0.206243
5.638,0.5608,0.571794,0.2,0.206234
5.679,0.5676,0.580184,0.2,0.205939
5.701,0.5746,0.58468,0.2,0.205748
5.741,0.5812,0.592844,0.2,0.205411
5.784,0.588,0.601602,0.2,0.204898
5.83,0.5948,0.610946,0.2,0.204309
5.871,0.6018,0.619251,0.2,0.203822
5.871,0.6084,0.619251,0.2,0.203822
5.916,0.6152,0.628144,0.2,0.20334
5.938,0.622,0.632784,0.2,0.203094
5.981,0.6288,0.641446,0.2,0.202857
6.023,0.6356,0.649902,0.2,0.202739
6.066,0.6424,0.658754,0.2,0.202614
6.112,0.6492,0.667802,0.2,0.202481
6.114,0.656,0.668204,0.2,0.202475
6.154,0.6628,0.676242,0.2,0.202339
6.176,0.6696,0.680658,0.2,0.202054
6.221,0.6764,0.68967,0.2,0.201487
6.265,0.6832,0.698459,0.2,0.201017
6.307,0.69,0.706834,0.2,0.200747
6.35,0.6968,0.715397,0.2,0.20048
6.351,0.703594,0.715596,0.19928,0.200473
6.396,0.710346,0.724546,0.19792,0.200291
6.415,0.717052,0.728323,0.19656,0.200217
6.459,0.723712,0.737063,0.1952,0.199769
6.502,0.730326,0.745548,0.19384,0.197919
6.544,0.736893,0.753761,0.19248,0.196175
6.587,0.743414,0.762086,0.19112,0.193939
6.588,0.749889,0.762278,0.18976,0.193885
6.634,0.756318,0.771071,0.1884,0.191458
6.651,0.7627,0.774293,0.18704,0.190583
6.691,0.769037,0.781628,0.18568,0.188575
6.734,0.775327,0.789626,0.18432,0.18643
6.776,0.78157,0.797713,0.18296,0.184111
6.819,0.787768,0.805334,0.1816,0.181831
6.861,0.793919,0.812861,0.18024,0.179603
6.863,0.800024,0.813217,0.17888,0.179495
6.903,0.806083,0.820294,0.17752,0.177369
6.924,0.812096,0.823976,0.17616,0.176279
6.967,0.818062,0.831444,0.1748,0.174051
7.009,0.823982,0.838644,0.17344,0.171848
7.052,0.829856,0.845922,0.17208,0.169661
7.092,0.835684,0.852607,0.17072,0.1676
7.136,0.841465,0.859867,0.16936,0.165401
7.137,0.8472,0.86003,0.168,0.165352
7.179,0.852889,0.867031,0.16664,0.163246
7.196,0.858532,0.869451,0.16528,0.162522
7.235,0.864128,0.875854,0.16392,0.160627
7.274,0.869841,0.882025,0.16252,0.15883
7.314,0.875182,0.888282,0.1612,0.157037
7.353,0.88064,0.894315,0.15984,0.155327
7.397,0.886051,0.901034,0.15848,0.15312
7.444,0.891416,0.908106,0.15712,0.150833
7.444,0.896735,0.908106,0.15576,0.150833
7.486,0.902008,0.914341,0.1544,0.149088
7.507,0.907234,0.916991,0.15304,0.148378
7.543,0.912415,0.92269,0.15168,0.146869
7.587,0.917549,0.929049,0.15032,0.145167
7.629,0.922636,0.935049,0.14896,0.143577
7.669,0.927678,0.940703,0.1476,0.142127
7.712,0.932673,0.946718,0.14624,0.140639
7.713,0.937622,0.946857,0.14488,0.140605
7.755,0.942525,0.95267,0.14352,0.139182
7.773,0.947382,0.955142,0.14216,0.138523
7.817,0.952192,0.961137,0.1408,0.136943
7.863,0.956956,0.96733,0.13944,0.135322
7.906,0.961674,0.973052,0.13808,0.133801
7.947,0.966346,0.978447,0.13672,0.132388
7.949,0.970971,0.978709,0.13536,0.13232
7.99,0.97555,0.984044,0.134,0.130911
8.012,0.980083,0.986883,0.13264,0.130168
8.053,0.98457,0.992131,0.13128,0.128796
8.095,0.98901,0.997436,0.12992,0.126863
8.139,0.993404,1.002909,0.12856,0.12489
8.179,0.997752,1.007811,0.1272,0.12325
8.222,1.002054,1.01301,0.12584,0.121592
8.223,1.006309,1.01313,0.12448,0.121554
8.263,1.010518,1.017903,0.12312,0.120096
8.283,1.014681,1.020268,0.12176,0.119431
8.329,1.018798,1.025659,0.1204,0.117933
8.371,1.022868,1.030633,0.11904,0.116323
8.415,1.026893,1.035531,0.11768,0.114475
8.461,1.030871,1.040573,0.11632,0.112659
8.462,1.034802,1.040795,0.11496,0.112593
8.504,1.038688,1.045323,0.1136,0.111271
8.518,1.042527,1.046966,0.11224,0.110795
8.562,1.04632,1.051744,0.11088,0.109303
8.604,1.050067,1.056235,0.10952,0.107532
8.647,1.053768,1.06086,0.10816,0.105719
8.689,1.057422,1.065102,0.1068,0.104246
8.735,1.06103,1.069792,0.10544,0.102658
8.737,1.064592,1.069995,0.10408,0.10259
8.779,1.068108,1.074207,0.10272,0.100901
8.794,1.071577,1.075693,0.10136,0.100253
8.837,1.075,1.0799,0.1,0.098421
8.883,1.078377,1.084313,0.09864,0.096451
8.926,1.081708,1.088357,0.09728,0.094626
8.967,1.084992,1.09214,0.09592,0.092918
8.969,1.08823,1.092323,0.09456,0.092836
9.01,1.091422,1.096033,0.0932,0.091157
9.032,1.094568,1.097907,0.09184,0.09031
9.072,1.097667,1.101515,0.09048,0.08868
9.115,1.10072,1.105228,0.08912,0.087004
9.162,1.103727,1.109204,0.08776,0.0852
9.209,1.106688,1.113096,0.0864,0.0834
9.211,1.109602,1.113178,0.08504,0.083362
9.251,1.112471,1.116503,0.08368,0.081823
9.27,1.115293,1.118022,0.08232,0.081074
9.31,1.118068,1.121173,0.08096,0.079508
9.354,1.120798,1.124568,0.0796,0.077813
9.396,1.123481,1.127739,0.07824,0.076159
9.437,1.126118,1.130767,0.07688,0.074572
9.482,1.128709,1.134015,0.07552,0.072729
9.484,1.131328,1.134158,0.07412,0.072645
9.523,1.133752,1.1369,0.0728,0.071019
9.542,1.136204,1.138214,0.07144,0.070236
9.585,1.13861,1.141131,0.07008,0.068422
9.628,1.14097,1.14397,0.06872,0.066615
9.674,1.143283,1.146921,0.06736,0.0647
9.72,1.14555,1.149785,0.066,0.062803
9.721,1.147771,1.149846,0.06464,0.062762
9.762,1.149946,1.152323,0.06328,0.061074
9.78,1.152074,1.153389,0.06192,0.060308
9.819,1.154156,1.15565,0.06056,0.058666
9.866,1.156192,1.158291,0.0592,0.056698
9.908,1.158182,1.160572,0.05784,0.054928
9.949,1.160125,1.162728,0.05648,0.053224
9.996,1.162022,1.165113,0.05512,0.051285
9.997,1.163873,1.165163,0.05376,0.051244
10.038,1.165678,1.167168,0.0524,0.049576
10.052,1.167436,1.167837,0.05104,0.049012
10.091,1.169149,1.169659,0.04968,0.047412
10.134,1.170815,1.171596,0.04832,0.045671
10.177,1.172434,1.173416,0.04696,0.043971
10.22,1.174008,1.175245,0.0456,0.042193
10.261,1.175579,1.17688,0.0442,0.040551
10.263,1.177016,1.176958,0.04288,0.04047
10.304,1.178451,1.178522,0.04152,0.038821
10.324,1.17984,1.179261,0.04016,0.038024
10.372,1.181182,1.180968,0.0388,0.036124
10.412,1.182478,1.182322,0.03744,0.034553
10.456,1.183728,1.183739,0.03608,0.03285
10.5,1.184932,1.185112,0.03472,0.031176
10.5,1.186089,1.185112,0.03336,0.031176
10.54,1.1872,1.186242,0.032,0.029741
10.562,1.188265,1.186881,0.03064,0.028872
10.605,1.189284,1.188023,0.02928,0.027201
10.647,1.190256,1.189044,0.02792,0.025624
10.692,1.191182,1.190093,0.02656,0.023991
